"Trazado1"
"Tiempo (sec)","Desplazamiento angular1 (deg)"
0,-0.00271616156541112
0.04,-0.00271350457659354
0.08,-0.0026949483475069
0.12,-0.00264495910549725
0.16,-0.00254921181868521
0.2,-0.00239607366969533
0.24,-0.00217892219952605
0.28,-0.00189969614505345
0.32,-0.00157440875462327
0.36,-0.00124180087620904
0.4,-0.000976566742216021
0.44,-0.000895828258678876
0.48,-0.001100996450656
0.52,-0.00164531177475377
0.56,-0.00251608200383374
0.6,-0.00360620675127932
0.64,-0.00468852718809593
0.68,-0.00562886125211189
0.72,-0.00637618668242332
0.76,-0.00691480266982739
0.8,-0.00728954546959827
0.84,-0.00763499788644407
0.88,-0.00820800570323079
0.92,-0.00929284939519173
0.96,-0.0109662677095289
1,-0.0132461352650313
1.04,-0.0161189897285603
1.08,-0.0195337102501845
1.12,-0.0233917776767103
1.16,-0.0275310467997312
1.2,-0.0316991938503792
1.24,-0.0356448581361711
1.28,-0.0392987923528305
1.32,-0.0426352386264424
1.36,-0.0456567899194267
1.4,-0.0484031749717964
1.44,-0.0509605993351763
1.48,-0.053471334378972
1.52,-0.0561433235381206
1.56,-0.0592579996634349
1.6,-0.0630494485321175
1.64,-0.0675491870052912
1.68,-0.0727514605095691
1.72,-0.0786341161011496
1.76,-0.0851561161556644
1.8,-0.0922546480580677
1.84,-0.099841256855058
1.88,-0.107797526723376
1.92,-0.115969090888709
1.96,-0.124158976149809
2,-0.132209058873135
2.04,-0.140111331824774
2.08,-0.147888539067211
2.12,-0.155578745677977
2.16,-0.163237617534656
2.2,-0.170940444838323
2.24,-0.178784682478553
2.28,-0.186891930578836
2.32,-0.195408630651652
2.36,-0.204429863369348
2.4,-0.213942740014596
2.44,-0.223918154948642
2.48,-0.234318293753141
2.52,-0.245095857838603
2.56,-0.256193065898237
2.6,-0.267540276334022
2.64,-0.279060837576283
2.68,-0.290728783891502
2.72,-0.302554496384313
2.76,-0.314551854921965
2.8,-0.326738437209435
2.84,-0.339135508782436
2.88,-0.351768512224105
2.92,-0.36465931220208
2.96,-0.377802687246381
3,-0.391185947417807
3.04,-0.404794590740146
3.08,-0.418612298792077
3.12,-0.432620821943395
3.16,-0.446801575868935
3.2,-0.461146045714468
3.24,-0.47565005357013
3.28,-0.490310081769516
3.32,-0.505122709505155
3.36,-0.520084872595044
3.4,-0.535192772399372
3.44,-0.550438101346867
3.48,-0.565810620029225
3.52,-0.581299843431817
3.56,-0.596894629643847
3.6,-0.612583805753858
3.64,-0.628356921493558
3.68,-0.644204526096128
3.72,-0.660116980698806
3.76,-0.676084221753763
3.8,-0.692096110790043
3.84,-0.708141498802227
3.88,-0.724208952681013
3.92,-0.740286832824519
3.96,-0.756363356591042
4,-0.772426378701219
4.04,-0.788463978441548
4.08,-0.804464003844139
4.12,-0.820414071727394
4.16,-0.836301487894598
4.2,-0.852113391477918
4.24,-0.867836940564688
4.28,-0.883458780084652
4.32,-0.898965880750754
4.36,-0.914344480884062
4.4,-0.929581135119088
4.44,-0.944662067389877
4.48,-0.959573521760054
4.52,-0.974301581305577
4.56,-0.988832003141958
4.6,-1.00315049231503
4.64,-1.0172426181623
4.68,-1.03109411829672
4.72,-1.04469114445437
4.76,-1.05801931955943
4.8,-1.07106332049906
4.84,-1.08380617383863
4.88,-1.09623129237762
4.92,-1.1083289171585
4.96,-1.1200934929107
5,-1.13151229152904
5.04,-1.14254039006406
5.08,-1.15312470542407
5.12,-1.16328949147199
5.16,-1.17317047490828
5.2,-1.18283320582452
5.24,-1.19181710436958
5.28,-1.19962698265341
5.32,-1.20707071199731
5.36,-1.21557000834035
5.4,-1.22883665150373
5.44,-1.25383173184887
5.48,-1.29019508788644
5.52,-1.33828015223077
5.56,-1.39814337507017
5.6,-1.46982457417073
5.64,-1.55331041215479
5.68,-1.64853287805596
5.72,-1.7553709112251
5.76,-1.87365077500659
5.8,-2.00314678508539
5.84,-2.14358337407864
5.88,-2.29462912580271
5.92,-2.4559049956152
5.96,-2.62699335240699
6,-2.80751183497754
6.04,-2.99343892036311
6.08,-3.17919566495704
6.12,-3.3644640608444
6.16,-3.54934646381255
6.2,-3.73382088919672
6.24,-3.91786657310643
6.28,-4.10149153141559
6.32,-4.28469640698427
6.36,-4.46747907073824
6.4,-4.64983850479083
6.44,-4.83176832974879
6.48,-5.0132687376196
6.52,-5.19433765825022
6.56,-5.37497025424151
6.6,-5.55516583483456
6.64000000000001,-5.73491940720322
6.68000000000001,-5.91422738092614
6.72000000000001,-6.09308746882963
6.76000000000001,-6.2714932904383
6.80000000000001,-6.44944380447842
6.84000000000001,-6.62693195353599
6.88000000000001,-6.8039527072183
6.92000000000001,-6.9805048591966
6.96000000000001,-7.15657948578952
7.00000000000001,-7.3321753005129
7.04000000000001,-7.50728345869895
7.08000000000001,-7.68190136268625
7.12000000000001,-7.8560217259693
7.16000000000001,-8.02964375399018
7.20000000000001,-8.20275302336972
7.24000000000001,-8.37534808631963
7.28000000000001,-8.54742269520105
7.32000000000001,-8.71897176557907
7.36000000000001,-8.88998678430871
7.40000000000001,-9.06046382465589
7.44000000000001,-9.23039332924449
7.48000000000001,-9.39977136732988
7.52000000000001,-9.56858957061315
7.56000000000001,-9.73684180415929
7.60000000000001,-9.90452085838398
7.64000000000001,-10.0716195528126
7.68000000000001,-10.2381307313056
7.72000000000001,-10.4040462257623
7.76000000000001,-10.5693599676437
7.80000000000001,-10.7340648463488
7.84000000000001,-10.8981507560448
7.88000000000001,-11.0616156392148
7.92000000000001,-11.2244444879167
7.96000000000001,-11.3866332840225
8.00000000000001,-11.5481721139257
8.04,-11.7090559217968
8.08,-11.869273905546
8.12,-12.0288191214905
8.16,-12.1876836755626
8.2,-12.3458578531215
8.24,-12.5033347284746
8.28,-12.6601046512986
8.32,-12.8161598100833
8.36,-12.9714915055896
8.4,-13.1260910599923
8.44,-13.2799489529394
8.48,-13.4330574138478
8.51999999999999,-13.5854061190893
8.55999999999999,-13.7369873199741
8.59999999999999,-13.8877915836354
8.63999999999999,-14.0378119588815
8.67999999999999,-14.1870349519953
8.71999999999999,-14.3354528607253
8.75999999999999,-14.4830571425801
8.79999999999999,-14.6298376689325
8.83999999999999,-14.775785130428
8.87999999999999,-14.9208917604531
8.91999999999999,-15.0651451724949
8.95999999999998,-15.2085376192429
8.99999999999998,-15.3510597980598
9.03999999999998,-15.4926994542164
9.07999999999998,-15.6334502755839
9.11999999999998,-15.7732986039218
9.15999999999998,-15.9122380804526
9.19999999999998,-16.0502565593196
9.23999999999998,-16.187343389305
9.27999999999998,-16.3234920954428
9.31999999999998,-16.4586878584656
9.35999999999998,-16.5929241717394
9.39999999999998,-16.7261917021107
9.43999999999997,-16.8584744732716
9.47999999999997,-16.9897672152758
9.51999999999997,-17.1200566874589
9.55999999999997,-17.2493336107489
9.59999999999997,-17.3775886575728
9.63999999999997,-17.5048099534861
9.67999999999997,-17.6309869204824
9.71999999999997,-17.7561089827771
9.75999999999997,-17.8801655643382
9.79999999999997,-18.0031472772574
9.83999999999997,-18.1250411423252
9.87999999999997,-18.2458389363466
9.91999999999996,-18.3655265727739
9.95999999999996,-18.4840969277234
9.99999999999996,-18.6015359752014
10.04,-18.7178342666571
10.08,-18.8329811885298
10.12,-18.9469639530766
10.16,-19.0597762472956
10.2,-19.1714010140694
10.24,-19.2818287595375
10.28,-19.3910499092159
10.32,-19.4990527906635
10.36,-19.6058257598511
10.4,-19.7113591605307
10.44,-19.815639385764
10.48,-19.9186567746314
10.52,-20.0203997032852
10.56,-20.1208565661566
10.5999999999999,-20.2200157996802
10.6399999999999,-20.3178675813231
10.6799999999999,-20.4143987602488
10.7199999999999,-20.5095995051953
10.7599999999999,-20.6034593025217
10.7999999999999,-20.6959545717731
10.8399999999999,-20.787130075005
10.8799999999999,-20.8767426240745
10.9199999999999,-20.9653443678203
10.9599999999999,-21.0907946106678
10.9999999999999,-21.2788722120523
11.0399999999999,-21.518875207728
11.0799999999999,-21.79674697181
11.1199999999999,-22.0957520297923
11.1599999999999,-22.3973893288085
11.1999999999999,-22.6826752119229
11.2399999999999,-22.9563523245782
11.2799999999999,-23.2299750077286
11.3199999999999,-23.5034755953986
11.3599999999999,-23.776834562696
11.3999999999999,-24.0500311640663
11.4399999999999,-24.323046760163
11.4799999999999,-24.595854081716
11.5199999999999,-24.8684303212541
11.5599999999999,-25.1407552211012
11.5999999999999,-25.4128035787368
11.6399999999999,-25.684557505107
11.6799999999999,-25.9559844907991
11.7199999999999,-26.2270666426341
11.7599999999999,-26.4977836157871
11.7999999999999,-26.7681078063341
11.8399999999999,-27.0380164836617
11.8799999999999,-27.3074917528726
11.9199999999999,-27.5765036920618
11.9599999999999,-27.845034458986
11.9999999999999,-28.1130590300578
12.0399999999999,-28.3805524441295
12.0799999999999,-28.6474993467355
12.1199999999999,-28.9138677253049
12.1599999999999,-29.1796399534979
12.1999999999999,-29.4447937030816
12.2399999999999,-29.7093066916231
12.2799999999999,-29.9731521118456
12.3199999999999,-30.2363075761251
12.3599999999999,-30.4987617449692
12.3999999999999,-30.7604740650044
12.4399999999999,-31.0214490769986
12.4799999999999,-31.2816152114834
12.5199999999999,-31.5410252823134
12.5599999999999,-31.7889361694618
12.5999999999999,-31.9852129234952
12.6399999999999,-32.114827455069
12.6799999999999,-32.1693152628344
12.7199999999999,-32.1453644745505
12.7599999999999,-32.0454801352102
12.7999999999999,-31.9161025658899
12.8399999999999,-31.7855736244846
12.8799999999999,-31.6220905100074
12.9199999999999,-31.379491004549
12.9599999999999,-31.0956916718062
12.9999999999999,-30.7986450758338
13.0399999999999,-30.498482783248
13.0799999999999,-30.1980861781181
13.1199999999999,-29.8983117943461
13.1599999999999,-29.6000747203975
13.1999999999999,-29.305934084759
13.2399999999999,-29.0196844937831
13.2799999999999,-28.7443960311191
13.3199999999999,-28.4823073138658
13.3599999999999,-28.234631066277
13.3999999999999,-28.0015788359906
13.4399999999999,-27.7825699853358
13.4799999999999,-27.5764915050822
13.5199999999999,-27.3819862693735
13.5599999999999,-27.1982974981651
13.5999999999999,-27.024993333358
13.6399999999999,-26.8614725608017
13.6799999999999,-26.7069848776285
13.7199999999999,-26.5606910045522
13.7599999999999,-26.4216881027873
13.7999999999999,-26.2890392128045
13.8399999999999,-26.1618123196055
13.8799999999999,-26.0390771747025
13.9199999999999,-25.9199332441629
13.9599999999999,-25.8035020176934
13.9999999999999,-25.6889453824637
14.0399999999999,-25.5754479432291
14.0799999999999,-25.462228989928
14.1199999999999,-25.3485334124522
14.1599999999999,-25.2336358979997
14.1999999999999,-25.1168871538873
14.2399999999999,-24.9980475270171
14.2799999999999,-24.8770440820172
14.3199999999999,-24.7538109944947
14.3599999999999,-24.6282824918249
14.3999999999999,-24.5003925050232
14.4399999999999,-24.3700769589678
14.4799999999999,-24.2372737636679
14.5199999999999,-24.1019282835312
14.5599999999999,-23.9639772303751
14.5999999999999,-23.8233731757619
14.6399999999999,-23.6800599141514
14.6799999999999,-23.5339891973172
14.7199999999999,-23.3851092642329
14.7599999999999,-23.2333799290589
14.7999999999999,-23.0787577630218
14.8399999999999,-22.9211988562626
14.8799999999999,-22.7606719978877
14.9199999999999,-22.5971394548038
14.9599999999999,-22.4305735750249
14.9999999999999,-22.2609470498547
15.0399999999999,-22.0882364419593
15.0799999999999,-21.9124224536053
15.1199999999999,-21.7334902093373
15.1599999999999,-21.5514334620939
15.1999999999999,-21.3662433187327
15.2399999999999,-21.1779240381414
15.2799999999999,-20.9864775053907
15.3199999999998,-20.7919239659139
15.3599999999998,-20.5942731898977
15.3999999999998,-20.3935496139128
15.4399999999998,-20.1897889532765
15.4799999999998,-19.9830296403435
15.5199999999998,-19.773307867843
15.5599999999998,-19.5606904212989
15.5999999999998,-19.3452232785599
15.6399999999998,-19.1269787339447
15.6799999999998,-18.9060318414903
15.7199999999998,-18.6824599967718
15.7599999999998,-18.4563472213388
15.7999999999998,-18.2278013217776
15.8399999999998,-17.996917822719
15.8799999999998,-17.7639559967937
15.9199999999998,-17.53001090945
15.9599999999998,-17.296378278435
15.9999999999998,-17.0642856110929
16.0399999999998,-16.8349398689352
16.0799999999998,-16.6091170384879
16.1199999999998,-16.3868891634984
16.1599999999998,-16.1682526718666
16.1999999999998,-15.9532098148246
16.2399999999998,-15.7417779178784
16.2799999999998,-15.5339838329982
16.3199999999998,-15.3298552383543
16.3599999999998,-15.1294422930974
16.3999999999998,-14.9328032438869
16.4399999999998,-14.7400153980657
16.4799999999998,-14.5511612469309
16.5199999999998,-14.3663539026795
16.5599999999998,-14.1857042887145
16.5999999999998,-14.009360330993
16.6399999999998,-13.8374748947598
16.6799999999998,-13.67023019213
16.7199999999998,-13.507820608616
16.7599999999998,-13.3504714498401
16.7999999999998,-13.198422423731
16.8399999999998,-13.0519453515446
16.8799999999998,-12.9113279725963
16.9199999999998,-12.7768863128464
16.9599999999998,-12.648963441495
16.9999999999998,-12.5279140565534
17.0399999999998,-12.4141268407223
17.0799999999998,-12.3079900586677
17.1199999999998,-12.2096898919605
17.1599999999998,-12.118998187096
17.1999999999998,-12.0354953726126
17.2399999999998,-11.9586383287366
17.2799999999998,-11.8877829564237
17.3199999999998,-11.8222484084015
17.3599999999998,-11.7613218561681
17.3999999999998,-11.7043143639855
17.4399999999998,-11.6505700660009
17.4799999999998,-11.5994836481823
17.5199999999998,-11.5504484757024
17.5599999999998,-11.5025491996192
17.5999999999998,-11.454754745194
17.6399999999998,-11.4061764546681
17.6799999999998,-11.356001804449
17.7199999999998,-11.3034483417726
17.7599999999998,-11.2477402442682
17.7999999999998,-11.1880746934524
17.8399999999998,-11.1235838732804
17.8799999999998,-11.0533211268415
17.9199999999998,-10.9762027517497
17.9599999999998,-10.8909891167555
17.9999999999998,-10.7962326323094
18.0399999999998,-10.6902655201188
18.0799999999998,-10.5711792163422
18.1199999999998,-10.436943055409
18.1599999999998,-10.2856611648212
18.1999999999998,-10.1161842184553
18.2399999999998,-9.92895304774705
18.2799999999998,-9.72683618522351
18.3199999999998,-9.51488479387583
18.3599999999998,-9.29890462134507
18.3999999999998,-9.08380826586619
18.4399999999998,-8.87278086200246
18.4799999999998,-8.66751663769042
18.5199999999998,-8.46868724463735
18.5599999999998,-8.27646954400586
18.5999999999998,-8.09335972840476
18.6399999999998,-7.92973457780618
18.6799999999998,-7.76745674624855
18.7199999999998,-7.60652170469715
18.7599999999998,-7.44694498871432
18.7999999999998,-7.28873568735195
18.8399999999998,-7.13190664583063
18.8799999999998,-6.97645623269386
18.9199999999998,-6.82240531044303
18.9599999999998,-6.66975353871012
18.9999999999998,-6.51850764047751
19.0399999999998,-6.36868896051259
19.0799999999998,-6.2202899517863
19.1199999999998,-6.07333241706466
19.1599999999998,-5.92781637333949
19.1999999999998,-5.78374924484796
19.2399999999998,-5.6411460261832
19.2799999999998,-5.50000699964326
19.3199999999998,-5.36034747218232
19.3599999999998,-5.22216790771099
19.3999999999998,-5.08548391388877
19.4399999999998,-4.9502961232027
19.4799999999998,-4.81662043405388
19.5199999999998,-4.68444996335813
19.5599999999998,-4.55380849593106
19.5999999999998,-4.42468922736332
19.6399999999998,-4.29710850320724
19.6799999999998,-4.17106729284155
19.7199999999998,-4.04657436167855
19.7599999999998,-3.92363069315326
19.7999999999998,-3.8022530107918
19.8399999999998,-3.68244236956133
19.8799999999998,-3.56419976466486
19.9199999999998,-3.44753412619478
19.9599999999998,-3.33245447942789
19.9999999999998,-3.21896185961835
20.0399999999998,-3.10705721371658
20.0799999999997,-2.99675763104878
20.1199999999997,-2.88805576854187
20.1599999999997,-2.78096037435582
20.1999999999997,-2.67547200336698
20.2399999999997,-2.57159936648759
20.2799999999997,-2.46933488178567
20.3199999999997,-2.36869592586424
20.3599999999997,-2.2696749137246
20.3999999999997,-2.17228070176056
20.4399999999997,-2.0765133259221
20.4799999999997,-1.98236308299607
20.5199999999997,-1.8898537370157
20.5599999999997,-1.79895835196686
20.5999999999997,-1.70969231287905
20.6399999999997,-1.62205638271501
20.6799999999997,-1.53604489511614
20.7199999999997,-1.45166017106762
20.7599999999997,-1.36892118916313
20.7999999999997,-1.28781111039626
20.8399999999997,-1.20833028385513
20.8799999999997,-1.13045688777253
20.9199999999997,-1.05418748175218
20.9599999999997,-0.979502140857536
20.9999999999997,-0.906390648993043
21.0399999999997,-0.834855175429051
21.0799999999997,-0.76491939421567
21.1199999999997,-0.696605769091854
21.1599999999997,-0.629923947836579
21.1999999999997,-0.564897740973712
21.2399999999997,-0.501520735551461
21.2799999999997,-0.439794841594766
21.3199999999997,-0.379646751557058
21.3599999999997,-0.320976705378656
21.3999999999997,-0.263723147237721
21.4399999999997,-0.207816994683671
21.4799999999997,-0.15326413576925
21.5199999999997,-0.100209736859694
21.5599999999997,-0.0488549246611058
21.5999999999997,-0.00138130615992912
21.6399999999997,-0.00842795194310856
21.6799999999997,-0.0218122256282827
21.7199999999997,-0.036854143245059
21.7599999999997,-0.0463233818504355
21.7999999999997,-0.052574762364476
21.8399999999997,-0.0582833327815899
21.8799999999997,-0.0652584224547567
21.9199999999997,-0.0733649663470787
21.9599999999997,-0.0821127813673776
21.9999999999997,-0.0911095512808132
22.0399999999997,-0.100047807539375
22.0799999999997,-0.108682068957884
22.1199999999997,-0.116830787550862
22.1599999999997,-0.124347861291542
22.1999999999997,-0.131194947476075
22.2399999999997,-0.137443676653882
22.2799999999997,-0.143174222518982
22.3199999999997,-0.148448309312669
22.3599999999997,-0.153322651342049
22.3999999999997,-0.157847462466112
22.4399999999997,-0.162060155646212
22.4799999999997,-0.165997181191303
22.5199999999997,-0.169687522277229
22.5599999999997,-0.173153600847148
22.5999999999997,-0.176415422595376
22.6399999999997,-0.179489447637046
22.6799999999997,-0.182389163982575
22.7199999999997,-0.185125596667427
22.7599999999997,-0.187707756478652
22.7999999999997,-0.190141306257734
22.8399999999997,-0.192434056688878
22.8799999999997,-0.194588819005794
22.9199999999997,-0.196609524615945
22.9599999999997,-0.198496612249926
22.9999999999997,-0.200252763788392
23.0399999999997,-0.201881096270729
23.0799999999997,-0.203386889556278
23.1199999999997,-0.204772175817426
23.1599999999997,-0.206039237389654
23.1999999999997,-0.207195984772032
23.2399999999997,-0.208246944695092
23.2799999999997,-0.209193187677715
23.3199999999997,-0.210041342853995
23.3599999999997,-0.210798172060438
23.3999999999997,-0.21146509225385
23.4399999999997,-0.212050869425081
23.4799999999997,-0.212558890028865
23.5199999999997,-0.212996238898537
23.5599999999997,-0.213364582261913
23.5999999999997,-0.21367291802439
23.6399999999997,-0.213926632635953
23.6799999999997,-0.214127485625277
23.7199999999997,-0.214286386574069
23.7599999999997,-0.214405131174396
23.7999999999997,-0.214489178953326
23.8399999999997,-0.214545825946433
23.8799999999997,-0.21458054751313
23.9199999999997,-0.214598822751915
23.9599999999997,-0.214604305443651
24,-0.214606133005409
